frequency,raw,error,smoothed,error_smoothed,equalization,parametric_eq,equalized_raw,equalized_smoothed,target
20.00,-7.72,-12.38,-7.74,-12.39,6.00,0.00,-1.72,-1.74,4.65
20.20,-7.65,-12.34,-7.65,-12.33,6.00,0.00,-1.65,-1.65,4.68
20.40,-7.56,-12.28,-7.55,-12.26,6.00,0.00,-1.56,-1.55,4.71
20.61,-7.45,-12.18,-7.44,-12.17,6.00,0.00,-1.45,-1.44,4.73
20.81,-7.29,-12.06,-7.30,-12.07,6.00,0.00,-1.29,-1.30,4.76
21.02,-7.15,-11.95,-7.17,-11.95,6.00,0.00,-1.15,-1.17,4.79
21.23,-7.04,-11.85,-7.03,-11.84,6.00,0.00,-1.04,-1.03,4.80
21.44,-6.90,-11.72,-6.90,-11.72,6.00,0.00,-0.90,-0.90,4.81
21.66,-6.77,-11.59,-6.77,-11.59,6.00,0.00,-0.77,-0.77,4.82
21.87,-6.62,-11.45,-6.63,-11.46,6.00,0.00,-0.62,-0.63,4.82
22.09,-6.50,-11.34,-6.49,-11.33,6.00,0.00,-0.50,-0.49,4.83
22.31,-6.36,-11.20,-6.36,-11.20,6.00,0.00,-0.36,-0.36,4.83
22.54,-6.23,-11.06,-6.24,-11.07,6.00,0.00,-0.23,-0.24,4.83
22.76,-6.11,-10.95,-6.10,-10.93,6.00,0.00,-0.11,-0.10,4.83
22.99,-5.96,-10.79,-5.97,-10.80,6.00,0.00,0.04,0.03,4.82
23.22,-5.83,-10.65,-5.84,-10.66,6.00,0.00,0.17,0.16,4.82
23.45,-5.71,-10.54,-5.70,-10.52,6.00,0.00,0.29,0.30,4.82
23.69,-5.57,-10.39,-5.57,-10.39,6.00,0.00,0.43,0.43,4.82
23.92,-5.43,-10.26,-5.44,-10.27,6.00,0.00,0.57,0.56,4.82
24.16,-5.31,-10.14,-5.30,-10.13,6.00,0.00,0.69,0.70,4.82
24.40,-5.17,-10.00,-5.18,-10.00,6.00,0.00,0.83,0.82,4.82
24.65,-5.04,-9.85,-5.05,-9.86,6.00,0.00,0.96,0.95,4.81
24.89,-4.92,-9.74,-4.91,-9.72,6.00,0.00,1.08,1.09,4.81
25.14,-4.77,-9.59,-4.78,-9.59,6.00,0.00,1.23,1.22,4.81
25.39,-4.63,-9.45,-4.64,-9.46,6.00,0.00,1.37,1.36,4.81
25.65,-4.53,-9.34,-4.51,-9.33,6.00,0.00,1.47,1.49,4.81
25.91,-4.39,-9.19,-4.39,-9.20,6.00,0.00,1.61,1.61,4.80
26.16,-4.27,-9.08,-4.27,-9.07,6.00,0.00,1.73,1.73,4.80
26.43,-4.14,-8.94,-4.14,-8.94,6.00,0.00,1.86,1.86,4.80
26.69,-3.99,-8.80,-4.01,-8.81,6.00,0.00,2.01,1.99,4.80
26.96,-3.89,-8.69,-3.88,-8.68,6.00,0.00,2.11,2.12,4.80
27.23,-3.75,-8.54,-3.75,-8.55,6.00,0.00,2.25,2.25,4.79
27.50,-3.64,-8.43,-3.63,-8.42,6.00,0.00,2.36,2.37,4.79
27.77,-3.48,-8.27,-3.49,-8.28,6.00,0.00,2.52,2.51,4.78
28.05,-3.38,-8.17,-3.37,-8.15,6.00,0.00,2.62,2.63,4.78
28.33,-3.23,-8.01,-3.25,-8.02,6.00,0.00,2.77,2.75,4.77
28.62,-3.14,-7.91,-3.13,-7.90,6.00,0.00,2.86,2.87,4.77
28.90,-3.00,-7.78,-3.00,-7.77,6.00,0.00,3.00,3.00,4.77
29.19,-2.88,-7.65,-2.88,-7.65,6.00,0.00,3.12,3.12,4.76
29.48,-2.75,-7.52,-2.76,-7.52,6.00,0.00,3.25,3.24,4.76
29.78,-2.64,-7.39,-2.64,-7.39,6.00,0.00,3.36,3.36,4.75
30.08,-2.53,-7.28,-2.52,-7.28,6.00,0.00,3.47,3.48,4.75
30.38,-2.41,-7.15,-2.41,-7.16,6.00,0.00,3.59,3.59,4.74
30.68,-2.30,-7.05,-2.29,-7.04,6.00,0.00,3.70,3.71,4.74
30.99,-2.18,-6.91,-2.18,-6.91,6.00,0.00,3.82,3.82,4.73
31.30,-2.06,-6.78,-2.06,-6.79,6.00,0.00,3.94,3.94,4.72
31.61,-1.95,-6.68,-1.95,-6.67,6.01,0.00,4.05,4.06,4.72
31.93,-1.85,-6.56,-1.85,-6.56,6.01,0.00,4.17,4.17,4.71
32.24,-1.74,-6.45,-1.74,-6.45,6.02,0.00,4.28,4.27,4.70
32.57,-1.65,-6.35,-1.64,-6.34,6.02,0.00,4.37,4.38,4.70
32.89,-1.53,-6.23,-1.54,-6.23,6.00,0.00,4.47,4.47,4.69
33.22,-1.43,-6.12,-1.44,-6.12,5.98,0.00,4.54,4.54,4.68
33.55,-1.33,-6.02,-1.33,-6.01,5.94,0.00,4.60,4.60,4.68
33.89,-1.24,-5.92,-1.24,-5.91,5.88,0.00,4.64,4.64,4.67
34.23,-1.15,-5.81,-1.15,-5.82,5.81,0.00,4.67,4.66,4.66
34.57,-1.06,-5.72,-1.06,-5.72,5.73,0.00,4.67,4.67,4.65
34.92,-0.99,-5.63,-0.98,-5.62,5.64,0.00,4.66,4.66,4.64
35.27,-0.89,-5.52,-0.90,-5.53,5.54,0.00,4.66,4.65,4.63
35.62,-0.82,-5.45,-0.81,-5.43,5.44,0.00,4.62,4.63,4.62
35.97,-0.71,-5.33,-0.73,-5.34,5.34,0.00,4.63,4.62,4.61
36.33,-0.64,-5.25,-0.65,-5.25,5.25,0.00,4.61,4.61,4.60
36.70,-0.58,-5.17,-0.57,-5.16,5.17,0.00,4.59,4.60,4.59
37.06,-0.49,-5.08,-0.50,-5.08,5.08,0.00,4.59,4.58,4.58
37.43,-0.42,-5.00,-0.43,-5.00,5.00,0.00,4.57,4.57,4.57
37.81,-0.35,-4.92,-0.35,-4.91,4.91,0.00,4.56,4.56,4.56
38.19,-0.29,-4.84,-0.28,-4.84,4.83,0.00,4.55,4.55,4.55
38.57,-0.20,-4.75,-0.21,-4.76,4.75,0.00,4.55,4.54,4.54
38.95,-0.15,-4.69,-0.15,-4.68,4.68,0.00,4.52,4.53,4.53
39.34,-0.08,-4.60,-0.08,-4.60,4.60,0.00,4.52,4.52,4.51
39.74,-0.02,-4.52,-0.02,-4.53,4.53,0.00,4.52,4.51,4.50
40.14,0.03,-4.46,0.03,-4.46,4.46,0.00,4.50,4.50,4.49
40.54,0.08,-4.41,0.08,-4.40,4.40,0.00,4.48,4.48,4.48
40.94,0.13,-4.35,0.13,-4.34,4.34,0.00,4.47,4.47,4.47
41.35,0.19,-4.28,0.18,-4.29,4.28,0.00,4.47,4.46,4.46
41.76,0.23,-4.23,0.23,-4.23,4.23,0.00,4.45,4.45,4.45
42.18,0.27,-4.18,0.27,-4.18,4.18,0.00,4.44,4.44,4.44
42.60,0.31,-4.13,0.30,-4.13,4.13,0.00,4.43,4.43,4.43
43.03,0.34,-4.09,0.34,-4.08,4.08,0.00,4.42,4.42,4.42
43.46,0.36,-4.05,0.36,-4.04,4.04,0.00,4.40,4.41,4.40
43.90,0.39,-3.99,0.38,-4.00,4.01,0.00,4.40,4.39,4.38
44.33,0.40,-3.97,0.40,-3.97,3.98,0.00,4.37,4.37,4.36
44.78,0.40,-3.95,0.40,-3.95,3.95,0.00,4.34,4.35,4.34
45.23,0.40,-3.93,0.40,-3.93,3.93,0.00,4.32,4.32,4.32
45.68,0.40,-3.92,0.40,-3.92,3.91,0.00,4.31,4.31,4.31
46.13,0.40,-3.90,0.40,-3.90,3.90,0.00,4.30,4.30,4.29
46.60,0.40,-3.89,0.39,-3.89,3.89,0.00,4.29,4.28,4.28
47.06,0.40,-3.87,0.38,-3.88,3.88,0.00,4.28,4.27,4.26
47.53,0.36,-3.89,0.37,-3.88,3.88,0.00,4.23,4.25,4.24
48.01,0.36,-3.88,0.35,-3.88,3.87,0.00,4.22,4.22,4.23
48.49,0.34,-3.87,0.33,-3.87,3.86,0.00,4.20,4.20,4.20
48.97,0.32,-3.86,0.32,-3.86,3.86,0.00,4.17,4.18,4.17
49.46,0.31,-3.84,0.30,-3.84,3.85,0.00,4.16,4.15,4.14
49.96,0.27,-3.85,0.28,-3.84,3.84,0.00,4.11,4.12,4.11
50.46,0.27,-3.83,0.25,-3.84,3.84,0.00,4.10,4.09,4.09
50.96,0.23,-3.85,0.24,-3.83,3.83,0.00,4.05,4.06,4.07
51.47,0.23,-3.82,0.23,-3.82,3.82,0.00,4.04,4.05,4.04
51.99,0.23,-3.80,0.22,-3.81,3.81,0.00,4.03,4.02,4.02
52.51,0.22,-3.79,0.21,-3.79,3.79,0.00,4.01,4.00,4.00
53.03,0.19,-3.80,0.20,-3.79,3.78,0.00,3.96,3.97,3.98
53.56,0.19,-3.77,0.19,-3.77,3.76,0.00,3.95,3.95,3.95
54.10,0.19,-3.75,0.19,-3.74,3.75,0.00,3.93,3.93,3.93
54.64,0.19,-3.72,0.18,-3.72,3.73,0.00,3.92,3.91,3.90
55.18,0.19,-3.70,0.17,-3.71,3.72,0.00,3.90,3.89,3.88
55.74,0.14,-3.72,0.16,-3.70,3.71,0.00,3.84,3.86,3.85
56.29,0.14,-3.70,0.14,-3.70,3.70,0.00,3.83,3.83,3.83
56.86,0.14,-3.68,0.12,-3.69,3.69,0.00,3.83,3.81,3.81
57.42,0.10,-3.69,0.11,-3.68,3.69,0.00,3.78,3.80,3.78
58.00,0.10,-3.67,0.09,-3.68,3.68,0.00,3.78,3.77,3.76
58.58,0.07,-3.68,0.07,-3.68,3.68,0.00,3.74,3.74,3.74
59.16,0.06,-3.67,0.06,-3.66,3.66,0.00,3.72,3.72,3.72
59.76,0.06,-3.65,0.05,-3.65,3.64,0.00,3.69,3.69,3.70
60.35,0.06,-3.62,0.05,-3.62,3.61,0.00,3.66,3.66,3.67
60.96,0.06,-3.59,0.07,-3.58,3.56,0.00,3.62,3.63,3.64
61.57,0.10,-3.51,0.09,-3.52,3.51,0.00,3.61,3.60,3.60
62.18,0.13,-3.45,0.12,-3.45,3.45,0.00,3.57,3.57,3.57
62.80,0.17,-3.38,0.17,-3.38,3.37,0.00,3.54,3.54,3.54
63.43,0.21,-3.31,0.22,-3.30,3.29,0.00,3.50,3.51,3.51
64.07,0.27,-3.21,0.27,-3.22,3.21,0.00,3.48,3.48,3.48
64.71,0.34,-3.13,0.33,-3.13,3.13,0.00,3.46,3.45,3.46
65.35,0.38,-3.06,0.38,-3.05,3.05,0.00,3.42,3.43,3.43
66.01,0.43,-2.98,0.43,-2.98,2.98,0.00,3.40,3.40,3.40
66.67,0.46,-2.92,0.46,-2.91,2.92,0.00,3.38,3.38,3.37
67.33,0.49,-2.86,0.48,-2.87,2.89,0.00,3.37,3.37,3.34
68.01,0.47,-2.85,0.47,-2.85,2.87,0.00,3.34,3.34,3.31
68.69,0.43,-2.86,0.43,-2.86,2.88,0.00,3.31,3.31,3.28
69.37,0.35,-2.90,0.35,-2.90,2.92,0.00,3.27,3.27,3.25
70.07,0.27,-2.96,0.26,-2.96,2.97,0.00,3.23,3.23,3.22
70.77,0.16,-3.04,0.16,-3.03,3.04,0.00,3.19,3.20,3.19
71.48,0.04,-3.13,0.04,-3.12,3.12,0.00,3.16,3.16,3.16
72.19,-0.07,-3.19,-0.08,-3.21,3.21,0.00,3.14,3.13,3.12
72.91,-0.22,-3.31,-0.21,-3.30,3.30,0.00,3.08,3.09,3.09
73.64,-0.33,-3.38,-0.32,-3.38,3.37,0.00,3.05,3.05,3.05
74.38,-0.42,-3.45,-0.43,-3.45,3.43,0.00,3.01,3.01,3.02
75.12,-0.50,-3.49,-0.51,-3.49,3.48,0.00,2.97,2.97,2.98
75.87,-0.56,-3.52,-0.56,-3.52,3.49,0.00,2.93,2.93,2.95
76.63,-0.59,-3.52,-0.59,-3.51,3.49,0.00,2.89,2.90,2.92
77.40,-0.58,-3.48,-0.58,-3.47,3.46,0.00,2.87,2.87,2.89
78.17,-0.55,-3.41,-0.56,-3.41,3.40,0.00,2.85,2.85,2.85
78.95,-0.50,-3.33,-0.51,-3.33,3.33,0.00,2.83,2.82,2.82
79.74,-0.45,-3.25,-0.45,-3.24,3.24,0.00,2.79,2.79,2.79
80.54,-0.38,-3.14,-0.38,-3.14,3.15,0.00,2.76,2.77,2.75
81.35,-0.30,-3.03,-0.31,-3.03,3.04,0.00,2.74,2.73,2.72
82.16,-0.23,-2.92,-0.24,-2.93,2.94,0.00,2.70,2.70,2.68
82.98,-0.18,-2.84,-0.17,-2.82,2.83,0.00,2.65,2.66,2.65
83.81,-0.10,-2.72,-0.11,-2.73,2.73,0.00,2.63,2.62,2.61
84.65,-0.05,-2.63,-0.06,-2.63,2.63,0.00,2.58,2.58,2.57
85.50,-0.00,-2.55,0.00,-2.54,2.54,0.00,2.53,2.54,2.54
86.35,0.06,-2.45,0.06,-2.45,2.45,0.00,2.50,2.50,2.50
87.22,0.12,-2.35,0.11,-2.35,2.35,0.00,2.47,2.47,2.46
88.09,0.17,-2.26,0.16,-2.26,2.26,0.00,2.43,2.43,2.42
88.97,0.21,-2.18,0.21,-2.17,2.17,0.00,2.38,2.38,2.38
89.86,0.26,-2.09,0.26,-2.09,2.08,0.00,2.34,2.34,2.34
90.76,0.31,-1.99,0.30,-1.99,1.99,0.00,2.29,2.29,2.29
91.66,0.36,-1.90,0.36,-1.90,1.90,0.00,2.25,2.25,2.25
92.58,0.41,-1.80,0.41,-1.80,1.80,0.00,2.21,2.21,2.20
93.51,0.46,-1.71,0.46,-1.71,1.71,0.00,2.16,2.17,2.16
94.44,0.51,-1.62,0.51,-1.61,1.61,0.00,2.12,2.12,2.12
95.39,0.56,-1.52,0.55,-1.52,1.52,0.00,2.08,2.07,2.07
96.34,0.60,-1.43,0.60,-1.43,1.43,0.00,2.02,2.02,2.02
97.30,0.64,-1.34,0.64,-1.33,1.33,0.00,1.97,1.97,1.97
98.28,0.69,-1.24,0.68,-1.24,1.24,0.00,1.93,1.92,1.92
99.26,0.73,-1.16,0.73,-1.15,1.15,0.00,1.88,1.88,1.88
100.25,0.77,-1.07,0.77,-1.07,1.07,0.00,1.83,1.83,1.83
101.25,0.81,-0.98,0.80,-0.98,0.98,0.00,1.79,1.79,1.78
102.27,0.84,-0.90,0.84,-0.90,0.90,0.00,1.74,1.74,1.73
103.29,0.87,-0.82,0.86,-0.83,0.82,0.00,1.69,1.68,1.68
104.32,0.88,-0.77,0.88,-0.76,0.76,0.00,1.63,1.63,1.64
105.37,0.89,-0.71,0.90,-0.69,0.70,0.00,1.58,1.59,1.59
106.42,0.92,-0.63,0.91,-0.64,0.64,0.00,1.56,1.55,1.54
107.48,0.92,-0.58,0.90,-0.59,0.60,0.00,1.52,1.51,1.49
108.56,0.88,-0.57,0.89,-0.56,0.57,0.00,1.44,1.46,1.44
109.64,0.86,-0.54,0.85,-0.54,0.55,0.00,1.40,1.40,1.39
110.74,0.82,-0.53,0.81,-0.53,0.53,0.00,1.35,1.35,1.34
111.85,0.77,-0.53,0.77,-0.52,0.53,0.00,1.29,1.30,1.29
112.97,0.73,-0.51,0.72,-0.52,0.53,0.00,1.25,1.24,1.23
114.10,0.66,-0.53,0.66,-0.52,0.53,0.00,1.18,1.19,1.18
115.24,0.60,-0.53,0.60,-0.53,0.53,0.00,1.12,1.12,1.12
116.39,0.55,-0.53,0.54,-0.53,0.52,0.00,1.06,1.06,1.07
117.55,0.50,-0.52,0.51,-0.51,0.50,0.00,0.99,1.00,1.01
118.73,0.49,-0.48,0.48,-0.48,0.46,0.00,0.95,0.95,0.96
119.92,0.49,-0.43,0.48,-0.43,0.42,0.00,0.90,0.90,0.91
121.12,0.49,-0.38,0.50,-0.37,0.36,0.00,0.84,0.85,0.86
122.33,0.53,-0.29,0.52,-0.29,0.29,0.00,0.81,0.81,0.81
123.55,0.56,-0.21,0.56,-0.21,0.21,0.00,0.76,0.76,0.76
124.79,0.60,-0.12,0.60,-0.12,0.12,0.00,0.72,0.72,0.71
126.03,0.64,-0.03,0.63,-0.03,0.03,0.00,0.67,0.67,0.66
127.29,0.67,0.05,0.67,0.06,-0.05,0.00,0.61,0.62,0.61
128.57,0.71,0.15,0.70,0.14,-0.13,0.00,0.57,0.57,0.55
129.85,0.71,0.20,0.72,0.22,-0.20,0.00,0.50,0.52,0.50
131.15,0.75,0.29,0.74,0.28,-0.27,0.00,0.47,0.46,0.45
132.46,0.75,0.34,0.74,0.34,-0.33,0.00,0.41,0.41,0.40
133.79,0.75,0.38,0.75,0.39,-0.39,0.00,0.36,0.36,0.36
135.12,0.75,0.43,0.75,0.43,-0.44,0.00,0.31,0.31,0.31
136.48,0.75,0.47,0.75,0.48,-0.49,0.00,0.26,0.26,0.27
137.84,0.75,0.52,0.75,0.52,-0.53,0.00,0.22,0.22,0.22
139.22,0.75,0.57,0.75,0.57,-0.57,0.00,0.18,0.18,0.17
140.61,0.75,0.61,0.75,0.61,-0.60,0.00,0.14,0.14,0.13
142.02,0.75,0.64,0.75,0.65,-0.64,0.00,0.11,0.11,0.10
143.44,0.75,0.68,0.74,0.68,-0.67,0.00,0.07,0.07,0.06
144.87,0.74,0.71,0.73,0.70,-0.71,0.00,0.03,0.02,0.02
146.32,0.71,0.72,0.72,0.73,-0.74,0.00,-0.03,-0.02,-0.02
147.78,0.71,0.75,0.71,0.76,-0.77,0.00,-0.06,-0.06,-0.05
149.26,0.71,0.79,0.71,0.79,-0.79,0.00,-0.09,-0.09,-0.09
150.75,0.71,0.83,0.70,0.83,-0.82,0.00,-0.12,-0.12,-0.13
152.26,0.71,0.87,0.69,0.86,-0.85,0.00,-0.15,-0.16,-0.17
153.78,0.67,0.87,0.68,0.88,-0.88,0.00,-0.22,-0.21,-0.21
155.32,0.66,0.90,0.66,0.91,-0.91,0.00,-0.26,-0.25,-0.25
156.88,0.66,0.94,0.65,0.94,-0.94,0.00,-0.29,-0.29,-0.29
158.44,0.66,0.98,0.64,0.97,-0.97,0.00,-0.32,-0.33,-0.33
160.03,0.62,0.98,0.63,1.00,-1.00,0.00,-0.38,-0.36,-0.37
161.63,0.62,1.02,0.62,1.02,-1.02,0.00,-0.40,-0.40,-0.41
163.24,0.62,1.06,0.60,1.05,-1.04,0.00,-0.43,-0.44,-0.45
164.88,0.58,1.05,0.59,1.07,-1.06,0.00,-0.49,-0.48,-0.48
166.53,0.58,1.09,0.56,1.08,-1.08,0.00,-0.51,-0.52,-0.52
168.19,0.53,1.08,0.54,1.09,-1.09,0.00,-0.57,-0.56,-0.56
169.87,0.52,1.11,0.51,1.11,-1.11,0.00,-0.59,-0.60,-0.60
171.57,0.49,1.12,0.48,1.11,-1.12,0.00,-0.63,-0.63,-0.64
173.29,0.45,1.11,0.45,1.12,-1.12,0.00,-0.68,-0.67,-0.67
175.02,0.43,1.13,0.42,1.12,-1.13,0.00,-0.70,-0.71,-0.71
176.77,0.38,1.12,0.38,1.13,-1.13,0.00,-0.76,-0.75,-0.75
178.54,0.35,1.13,0.35,1.13,-1.13,0.00,-0.79,-0.79,-0.79
180.32,0.31,1.13,0.30,1.13,-1.13,0.00,-0.82,-0.82,-0.83
182.13,0.27,1.12,0.26,1.12,-1.12,0.00,-0.85,-0.86,-0.86
183.95,0.22,1.11,0.22,1.11,-1.11,0.00,-0.89,-0.89,-0.90
185.79,0.17,1.09,0.16,1.09,-1.09,0.00,-0.93,-0.93,-0.93
187.65,0.11,1.07,0.11,1.07,-1.07,0.00,-0.96,-0.96,-0.97
189.52,0.05,1.04,0.05,1.04,-1.04,0.00,-1.00,-1.00,-1.00
191.42,-0.01,1.01,-0.02,1.01,-1.01,0.00,-1.03,-1.03,-1.03
193.33,-0.08,0.97,-0.08,0.97,-0.98,0.00,-1.06,-1.06,-1.06
195.27,-0.15,0.93,-0.16,0.93,-0.93,0.00,-1.09,-1.09,-1.09
197.22,-0.23,0.88,-0.23,0.89,-0.89,0.00,-1.12,-1.12,-1.12
199.19,-0.30,0.84,-0.30,0.84,-0.84,0.00,-1.14,-1.14,-1.15
201.18,-0.37,0.79,-0.38,0.79,-0.78,0.00,-1.16,-1.16,-1.17
203.19,-0.45,0.73,-0.46,0.73,-0.72,0.00,-1.18,-1.18,-1.19
205.23,-0.54,0.66,-0.55,0.66,-0.66,0.00,-1.20,-1.20,-1.21
207.28,-0.64,0.57,-0.64,0.59,-0.59,0.00,-1.23,-1.22,-1.22
209.35,-0.72,0.51,-0.73,0.51,-0.51,0.00,-1.23,-1.24,-1.24
211.44,-0.82,0.43,-0.83,0.42,-0.43,0.00,-1.25,-1.26,-1.26
213.56,-0.93,0.33,-0.93,0.34,-0.34,0.00,-1.27,-1.27,-1.27
215.69,-1.03,0.23,-1.03,0.24,-0.24,0.00,-1.28,-1.27,-1.27
217.85,-1.13,0.14,-1.14,0.14,-0.14,0.00,-1.27,-1.27,-1.28
220.03,-1.24,0.04,-1.25,0.04,-0.03,0.00,-1.28,-1.28,-1.29
222.23,-1.36,-0.07,-1.37,-0.08,0.09,0.00,-1.28,-1.29,-1.30
224.45,-1.51,-0.22,-1.50,-0.20,0.21,0.00,-1.31,-1.29,-1.30
226.70,-1.62,-0.33,-1.63,-0.34,0.34,0.00,-1.29,-1.30,-1.30
228.96,-1.76,-0.47,-1.77,-0.47,0.47,0.00,-1.29,-1.30,-1.30
231.25,-1.90,-0.62,-1.90,-0.61,0.61,0.00,-1.29,-1.29,-1.29
233.57,-2.04,-0.76,-2.04,-0.76,0.75,0.00,-1.29,-1.29,-1.29
235.90,-2.17,-0.89,-2.18,-0.90,0.90,0.00,-1.28,-1.28,-1.29
238.26,-2.32,-1.05,-2.32,-1.04,1.04,0.00,-1.28,-1.27,-1.28
240.64,-2.45,-1.19,-2.46,-1.19,1.19,0.00,-1.27,-1.27,-1.27
243.05,-2.59,-1.34,-2.60,-1.34,1.33,0.00,-1.26,-1.26,-1.26
245.48,-2.73,-1.49,-2.73,-1.48,1.48,0.00,-1.26,-1.25,-1.25
247.93,-2.84,-1.61,-2.85,-1.61,1.62,0.00,-1.23,-1.23,-1.24
250.41,-2.97,-1.75,-2.98,-1.75,1.76,0.00,-1.22,-1.22,-1.23
252.92,-3.09,-1.89,-3.10,-1.89,1.89,0.00,-1.20,-1.21,-1.21
255.45,-3.22,-2.04,-3.22,-2.03,2.02,0.00,-1.20,-1.20,-1.19
258.00,-3.32,-2.15,-3.32,-2.15,2.15,0.00,-1.18,-1.18,-1.18
260.58,-3.42,-2.27,-3.42,-2.27,2.27,0.00,-1.16,-1.15,-1.16
263.19,-3.50,-2.37,-3.52,-2.38,2.39,0.00,-1.12,-1.13,-1.14
265.82,-3.61,-2.50,-3.61,-2.49,2.50,0.00,-1.12,-1.11,-1.12
268.48,-3.71,-2.62,-3.70,-2.61,2.61,0.00,-1.11,-1.10,-1.10
271.16,-3.77,-2.70,-3.79,-2.71,2.71,0.00,-1.07,-1.08,-1.08
273.87,-3.86,-2.81,-3.86,-2.80,2.80,0.00,-1.06,-1.05,-1.06
276.61,-3.91,-2.88,-3.92,-2.89,2.89,0.00,-1.02,-1.03,-1.04
279.38,-3.98,-2.97,-3.98,-2.97,2.97,0.00,-1.01,-1.01,-1.02
282.17,-4.03,-3.04,-4.03,-3.03,3.04,0.00,-0.99,-0.99,-1.00
284.99,-4.06,-3.09,-4.07,-3.10,3.10,0.00,-0.97,-0.98,-0.98
287.84,-4.10,-3.15,-4.10,-3.14,3.14,0.00,-0.97,-0.96,-0.96
290.72,-4.10,-3.17,-4.11,-3.17,3.16,0.00,-0.95,-0.95,-0.94
293.63,-4.09,-3.18,-4.09,-3.18,3.16,0.00,-0.93,-0.93,-0.92
296.57,-4.05,-3.16,-4.05,-3.16,3.14,0.00,-0.91,-0.91,-0.90
299.53,-3.99,-3.12,-4.00,-3.12,3.10,0.00,-0.89,-0.89,-0.88
302.53,-3.91,-3.06,-3.92,-3.06,3.05,0.00,-0.87,-0.87,-0.86
305.55,-3.82,-3.00,-3.82,-2.99,2.98,0.00,-0.85,-0.84,-0.83
308.61,-3.70,-2.90,-3.70,-2.90,2.90,0.00,-0.80,-0.80,-0.81
311.69,-3.58,-2.81,-3.59,-2.81,2.82,0.00,-0.76,-0.77,-0.78
314.81,-3.47,-2.73,-3.48,-2.73,2.74,0.00,-0.73,-0.74,-0.75
317.96,-3.39,-2.67,-3.39,-2.66,2.68,0.00,-0.72,-0.71,-0.73
321.14,-3.30,-2.60,-3.31,-2.60,2.63,0.00,-0.68,-0.68,-0.71
324.35,-3.25,-2.57,-3.25,-2.56,2.59,0.00,-0.66,-0.66,-0.69
327.59,-3.20,-2.54,-3.21,-2.55,2.57,0.00,-0.63,-0.64,-0.67
330.87,-3.19,-2.55,-3.20,-2.55,2.56,0.00,-0.63,-0.63,-0.65
334.18,-3.19,-2.57,-3.19,-2.57,2.57,0.00,-0.63,-0.63,-0.63
337.52,-3.19,-2.59,-3.19,-2.59,2.58,0.00,-0.62,-0.62,-0.61
340.90,-3.19,-2.61,-3.19,-2.60,2.58,0.00,-0.61,-0.60,-0.59
344.30,-3.15,-2.59,-3.16,-2.60,2.58,0.00,-0.57,-0.58,-0.57
347.75,-3.13,-2.59,-3.13,-2.59,2.57,0.00,-0.57,-0.56,-0.55
351.23,-3.08,-2.56,-3.09,-2.56,2.54,0.00,-0.54,-0.54,-0.53
354.74,-3.03,-2.53,-3.03,-2.52,2.51,0.00,-0.53,-0.52,-0.51
358.28,-2.95,-2.46,-2.95,-2.46,2.46,0.00,-0.50,-0.49,-0.50
361.87,-2.87,-2.40,-2.87,-2.40,2.40,0.00,-0.47,-0.47,-0.48
365.49,-2.77,-2.32,-2.79,-2.33,2.34,0.00,-0.44,-0.45,-0.46
369.14,-2.71,-2.27,-2.70,-2.26,2.27,0.00,-0.45,-0.44,-0.45
372.83,-2.61,-2.19,-2.62,-2.19,2.20,0.00,-0.42,-0.42,-0.43
376.56,-2.54,-2.13,-2.54,-2.13,2.12,0.00,-0.42,-0.42,-0.42
380.33,-2.44,-2.05,-2.45,-2.05,2.05,0.00,-0.39,-0.40,-0.40
384.13,-2.37,-1.99,-2.37,-1.98,1.98,0.00,-0.39,-0.39,-0.39
387.97,-2.28,-1.91,-2.28,-1.91,1.91,0.00,-0.37,-0.37,-0.38
391.85,-2.19,-1.83,-2.20,-1.84,1.84,0.00,-0.35,-0.36,-0.37
395.77,-2.12,-1.78,-2.12,-1.77,1.77,0.00,-0.35,-0.35,-0.35
399.73,-2.04,-1.71,-2.04,-1.71,1.71,0.00,-0.34,-0.34,-0.34
403.72,-1.97,-1.65,-1.97,-1.65,1.65,0.00,-0.33,-0.33,-0.33
407.76,-1.89,-1.58,-1.90,-1.58,1.58,0.00,-0.31,-0.32,-0.32
411.84,-1.83,-1.53,-1.83,-1.53,1.53,0.00,-0.31,-0.31,-0.31
415.96,-1.77,-1.48,-1.77,-1.47,1.47,0.00,-0.31,-0.30,-0.30
420.12,-1.70,-1.42,-1.71,-1.42,1.42,0.00,-0.29,-0.29,-0.29
424.32,-1.64,-1.37,-1.64,-1.36,1.37,0.00,-0.28,-0.27,-0.28
428.56,-1.57,-1.31,-1.58,-1.31,1.32,0.00,-0.25,-0.26,-0.27
432.85,-1.52,-1.27,-1.53,-1.27,1.28,0.00,-0.24,-0.25,-0.26
437.18,-1.48,-1.24,-1.48,-1.24,1.24,0.00,-0.24,-0.24,-0.25
441.55,-1.44,-1.22,-1.44,-1.21,1.21,0.00,-0.24,-0.23,-0.23
445.96,-1.39,-1.18,-1.39,-1.18,1.17,0.00,-0.22,-0.22,-0.22
450.42,-1.33,-1.13,-1.35,-1.14,1.14,0.00,-0.20,-0.21,-0.21
454.93,-1.30,-1.12,-1.30,-1.11,1.10,0.00,-0.21,-0.20,-0.19
459.48,-1.24,-1.07,-1.24,-1.07,1.06,0.00,-0.19,-0.19,-0.18
464.07,-1.18,-1.02,-1.18,-1.02,1.01,0.00,-0.17,-0.17,-0.17
468.71,-1.11,-0.97,-1.12,-0.97,0.96,0.00,-0.15,-0.15,-0.15
473.40,-1.04,-0.91,-1.05,-0.91,0.92,0.00,-0.13,-0.13,-0.14
478.13,-0.98,-0.87,-0.98,-0.86,0.87,0.00,-0.12,-0.11,-0.12
482.91,-0.91,-0.81,-0.92,-0.82,0.82,0.00,-0.09,-0.10,-0.11
487.74,-0.86,-0.78,-0.86,-0.78,0.78,0.00,-0.08,-0.08,-0.09
492.62,-0.81,-0.75,-0.81,-0.74,0.74,0.00,-0.07,-0.07,-0.07
497.55,-0.76,-0.71,-0.77,-0.71,0.71,0.00,-0.05,-0.05,-0.06
502.52,-0.72,-0.69,-0.72,-0.68,0.69,0.00,-0.04,-0.04,-0.04
507.55,-0.68,-0.66,-0.68,-0.66,0.66,0.00,-0.02,-0.02,-0.03
512.62,-0.64,-0.64,-0.65,-0.64,0.64,0.00,-0.00,-0.00,-0.01
517.75,-0.61,-0.63,-0.62,-0.63,0.63,0.00,0.01,0.01,0.01
522.93,-0.58,-0.62,-0.58,-0.61,0.61,0.00,0.03,0.03,0.03
528.16,-0.55,-0.60,-0.55,-0.60,0.60,0.00,0.04,0.05,0.04
533.44,-0.51,-0.58,-0.52,-0.59,0.58,0.00,0.07,0.06,0.06
538.77,-0.49,-0.58,-0.49,-0.57,0.57,0.00,0.08,0.08,0.08
544.16,-0.46,-0.57,-0.46,-0.56,0.56,0.00,0.10,0.10,0.10
549.60,-0.42,-0.55,-0.43,-0.55,0.55,0.00,0.13,0.12,0.12
555.10,-0.40,-0.54,-0.40,-0.54,0.54,0.00,0.14,0.14,0.13
560.65,-0.38,-0.54,-0.38,-0.53,0.53,0.00,0.15,0.15,0.15
566.25,-0.34,-0.52,-0.35,-0.52,0.52,0.00,0.18,0.17,0.17
571.92,-0.33,-0.52,-0.33,-0.51,0.51,0.00,0.18,0.18,0.18
577.64,-0.29,-0.49,-0.30,-0.50,0.50,0.00,0.21,0.20,0.19
583.41,-0.29,-0.51,-0.29,-0.50,0.49,0.00,0.20,0.21,0.21
589.25,-0.25,-0.48,-0.26,-0.49,0.49,0.00,0.23,0.23,0.22
595.14,-0.25,-0.50,-0.24,-0.48,0.48,0.00,0.23,0.24,0.24
601.09,-0.21,-0.47,-0.22,-0.48,0.48,0.00,0.27,0.26,0.25
607.10,-0.20,-0.48,-0.21,-0.48,0.48,0.00,0.28,0.27,0.27
613.17,-0.20,-0.50,-0.19,-0.48,0.49,0.00,0.28,0.30,0.29
619.30,-0.16,-0.48,-0.18,-0.49,0.49,0.00,0.33,0.32,0.31
625.50,-0.16,-0.50,-0.17,-0.50,0.50,0.00,0.34,0.33,0.33
631.75,-0.16,-0.51,-0.16,-0.51,0.51,0.00,0.35,0.35,0.34
638.07,-0.16,-0.53,-0.17,-0.53,0.52,0.00,0.36,0.36,0.36
644.45,-0.16,-0.54,-0.16,-0.54,0.53,0.00,0.37,0.37,0.37
650.89,-0.16,-0.56,-0.16,-0.55,0.54,0.00,0.38,0.39,0.39
657.40,-0.14,-0.55,-0.15,-0.56,0.56,0.00,0.41,0.41,0.40
663.98,-0.14,-0.57,-0.15,-0.57,0.57,0.00,0.42,0.42,0.42
670.62,-0.14,-0.58,-0.14,-0.57,0.58,0.00,0.44,0.44,0.43
677.32,-0.14,-0.59,-0.14,-0.59,0.59,0.00,0.45,0.45,0.44
